Time (s)	Extension	Load
  0.0000	0.000E+0	16.100E-3
  1.0000	0.000E+0	16.100E-3
  2.0000	-30.000E-3	16.100E-3
  3.0000	-100.000E-3	16.100E-3
  4.0000	-170.000E-3	16.100E-3
  5.0000	-230.000E-3	16.100E-3
  6.0000	-300.000E-3	16.100E-3
  7.0000	-370.000E-3	16.100E-3
  8.0000	-430.000E-3	16.100E-3
  9.0000	-500.000E-3	16.100E-3
 10.0000	-570.000E-3	16.100E-3
 11.0000	-630.000E-3	16.100E-3
 12.0000	-700.000E-3	16.100E-3
 13.0000	-770.000E-3	16.100E-3
 14.0000	-830.000E-3	16.100E-3
 15.0000	-900.000E-3	16.100E-3
 16.0000	-970.000E-3	16.100E-3
 17.0000	-1.030E+0	16.100E-3
 18.0000	-1.100E+0	16.100E-3
 19.0000	-1.170E+0	16.100E-3
 20.0000	-1.230E+0	16.100E-3
 21.0000	-1.300E+0	16.100E-3
 22.0000	-1.370E+0	16.100E-3
 23.0000	-1.430E+0	16.100E-3
 24.0000	-1.500E+0	16.100E-3
 25.0000	-1.570E+0	16.100E-3
 26.0000	-1.630E+0	16.100E-3
 27.0000	-1.700E+0	16.100E-3
 28.0000	-1.770E+0	16.100E-3
 29.0000	-1.830E+0	16.100E-3
 30.0000	-1.900E+0	16.100E-3
 31.0000	-1.970E+0	16.100E-3
 32.0000	-2.030E+0	13.420E-3
 33.0000	-2.100E+0	13.420E-3
 34.0000	-2.170E+0	13.420E-3
 35.0000	-2.230E+0	13.420E-3
 36.0000	-2.300E+0	13.420E-3
 37.0000	-2.370E+0	16.100E-3
 38.0000	-2.430E+0	13.420E-3
 39.0000	-2.500E+0	13.420E-3
 40.0000	-2.570E+0	16.100E-3
 41.0000	-2.630E+0	-45.640E-3
 42.0000	-2.700E+0	-158.400E-3
 43.0000	-2.770E+0	-324.800E-3
 44.0000	-2.830E+0	-531.500E-3
 45.0000	-2.900E+0	-786.600E-3
 46.0000	-2.970E+0	-1.098E+0
 47.0000	-3.030E+0	-1.425E+0
 48.0000	-3.100E+0	-1.785E+0
 49.0000	-3.170E+0	-2.191E+0
 50.0000	-3.230E+0	-2.650E+0
 51.0000	-3.300E+0	-3.168E+0
 52.0000	-3.370E+0	-3.758E+0
 53.0000	-3.430E+0	-4.381E+0
 54.0000	-3.500E+0	-5.007E+0
 55.0000	-3.570E+0	-5.646E+0
 56.0000	-3.630E+0	-6.282E+0
 57.0000	-3.700E+0	-6.902E+0
 58.0000	-3.770E+0	-7.511E+0
 59.0000	-3.830E+0	-8.099E+0
 60.0000	-3.900E+0	-8.668E+0
 61.0000	-3.970E+0	-9.208E+0
 62.0000	-4.030E+0	-9.739E+0
 63.0000	-4.100E+0	-10.230E+0
 64.0000	-4.170E+0	-10.700E+0
 65.0000	-4.230E+0	-11.130E+0
 66.0000	-4.300E+0	-11.530E+0
 67.0000	-4.370E+0	-11.910E+0
 68.0000	-4.430E+0	-12.260E+0
 69.0000	-4.500E+0	-12.580E+0
 70.0000	-4.570E+0	-12.890E+0
 71.0000	-4.630E+0	-13.160E+0
 72.0000	-4.700E+0	-13.420E+0
 73.0000	-4.770E+0	-13.660E+0
 74.0000	-4.830E+0	-13.880E+0
 75.0000	-4.900E+0	-14.080E+0
 76.0000	-4.970E+0	-14.250E+0
 77.0000	-5.030E+0	-14.420E+0
 78.0000	-5.100E+0	-14.560E+0
 79.0000	-5.170E+0	-14.680E+0
 80.0000	-5.230E+0	-14.780E+0
 81.0000	-5.300E+0	-14.870E+0
 82.0000	-5.370E+0	-14.930E+0
 83.0000	-5.430E+0	-14.980E+0
 84.0000	-5.500E+0	-15.000E+0
 85.0000	-5.570E+0	-15.000E+0
 86.0000	-5.630E+0	-14.970E+0
 87.0000	-5.700E+0	-14.900E+0
 88.0000	-5.770E+0	-14.790E+0
 89.0000	-5.830E+0	-14.590E+0
 90.0000	-5.900E+0	-14.080E+0
 91.0000	-5.970E+0	-13.330E+0
 92.0000	-6.030E+0	-12.090E+0
 93.0000	-6.100E+0	-11.170E+0
 94.0000	-6.170E+0	-10.570E+0
 95.0000	-6.230E+0	-9.911E+0
 96.0000	-6.300E+0	-9.358E+0
 97.0000	-6.370E+0	-8.832E+0
 98.0000	-6.430E+0	-8.389E+0
 99.0000	-6.500E+0	-7.884E+0
100.0000	-6.570E+0	-7.208E+0
101.0000	-6.630E+0	-6.502E+0
102.0000	-6.700E+0	-6.024E+0
103.0000	-6.770E+0	-5.530E+0
104.0000	-6.830E+0	-5.227E+0
105.0000	-6.900E+0	-4.991E+0
106.0000	-6.970E+0	-4.690E+0
107.0000	-7.030E+0	-4.561E+0
108.0000	-7.100E+0	-4.459E+0
109.0000	-7.170E+0	-4.376E+0
110.0000	-7.230E+0	-4.309E+0
111.0000	-7.300E+0	-4.242E+0
112.0000	-7.370E+0	-4.164E+0
113.0000	-7.430E+0	-4.021E+0
114.0000	-7.500E+0	-3.925E+0
115.0000	-7.570E+0	-3.847E+0
116.0000	-7.630E+0	-3.783E+0
117.0000	-7.700E+0	-3.723E+0
118.0000	-7.770E+0	-3.686E+0
119.0000	-7.830E+0	-3.651E+0
120.0000	-7.900E+0	-3.632E+0
121.0000	-7.970E+0	-3.611E+0
122.0000	-8.030E+0	-3.600E+0
123.0000	-8.100E+0	-3.589E+0
124.0000	-8.170E+0	-3.589E+0
125.0000	-8.230E+0	-3.584E+0
126.0000	-8.300E+0	-3.584E+0
127.0000	-8.370E+0	-3.584E+0
128.0000	-8.430E+0	-3.584E+0
129.0000	-8.500E+0	-3.592E+0
130.0000	-8.570E+0	-3.603E+0
131.0000	-8.630E+0	-3.616E+0
132.0000	-8.700E+0	-3.627E+0
133.0000	-8.770E+0	-3.632E+0
134.0000	-8.830E+0	-3.646E+0
135.0000	-8.900E+0	-3.662E+0
136.0000	-8.970E+0	-3.662E+0
137.0000	-9.030E+0	-3.670E+0
138.0000	-9.100E+0	-3.680E+0
139.0000	-9.170E+0	-3.699E+0
140.0000	-9.230E+0	-3.713E+0
141.0000	-9.300E+0	-3.723E+0
142.0000	-9.370E+0	-3.734E+0
143.0000	-9.430E+0	-3.729E+0
144.0000	-9.500E+0	-3.748E+0
145.0000	-9.570E+0	-3.758E+0
146.0000	-9.630E+0	-3.777E+0
147.0000	-9.700E+0	-3.793E+0
148.0000	-9.770E+0	-3.788E+0
149.0000	-9.830E+0	-3.788E+0
150.0000	-9.900E+0	-3.774E+0
151.0000	-9.970E+0	-3.772E+0
152.0000	-10.030E+0	-3.764E+0
153.0000	-10.100E+0	-3.713E+0
154.0000	-10.170E+0	-3.675E+0
155.0000	-10.230E+0	-3.654E+0
156.0000	-10.300E+0	-3.643E+0
157.0000	-10.370E+0	-3.603E+0
158.0000	-10.430E+0	-3.519E+0
159.0000	-10.500E+0	-3.485E+0
160.0000	-10.570E+0	-3.468E+0
161.0000	-10.630E+0	-3.417E+0
162.0000	-10.700E+0	-3.415E+0
163.0000	-10.770E+0	-3.409E+0
164.0000	-10.830E+0	-3.374E+0
165.0000	-10.900E+0	-3.364E+0
166.0000	-10.970E+0	-3.323E+0
167.0000	-11.030E+0	-3.307E+0
168.0000	-11.100E+0	-3.315E+0
169.0000	-11.170E+0	-3.329E+0
170.0000	-11.230E+0	-3.334E+0
171.0000	-11.300E+0	-3.342E+0
172.0000	-11.340E+0	-3.267E+0
173.0000	-11.340E+0	-3.098E+0
