Time (s)	Extension	Load
  0.0000	0.000E+0	48.320E-3
  1.0000	0.000E+0	48.320E-3
  2.0000	-60.000E-3	42.950E-3
  3.0000	-130.000E-3	37.580E-3
  4.0000	-190.000E-3	24.160E-3
  5.0000	-260.000E-3	16.100E-3
  6.0000	-330.000E-3	18.790E-3
  7.0000	-390.000E-3	13.420E-3
  8.0000	-460.000E-3	16.100E-3
  9.0000	-530.000E-3	16.100E-3
 10.0000	-590.000E-3	16.100E-3
 11.0000	-660.000E-3	16.100E-3
 12.0000	-730.000E-3	16.100E-3
 13.0000	-790.000E-3	16.100E-3
 14.0000	-860.000E-3	16.100E-3
 15.0000	-930.000E-3	13.420E-3
 16.0000	-990.000E-3	16.100E-3
 17.0000	-1.060E+0	16.100E-3
 18.0000	-1.130E+0	16.100E-3
 19.0000	-1.190E+0	16.100E-3
 20.0000	-1.260E+0	16.100E-3
 21.0000	-1.320E+0	16.100E-3
 22.0000	-1.390E+0	13.420E-3
 23.0000	-1.460E+0	16.100E-3
 24.0000	-1.530E+0	13.420E-3
 25.0000	-1.590E+0	16.100E-3
 26.0000	-1.660E+0	16.100E-3
 27.0000	-1.730E+0	13.420E-3
 28.0000	-1.790E+0	13.420E-3
 29.0000	-1.860E+0	16.100E-3
 30.0000	-1.930E+0	13.420E-3
 31.0000	-1.990E+0	13.420E-3
 32.0000	-2.060E+0	13.420E-3
 33.0000	-2.130E+0	13.420E-3
 34.0000	-2.190E+0	13.420E-3
 35.0000	-2.260E+0	13.420E-3
 36.0000	-2.330E+0	13.420E-3
 37.0000	-2.390E+0	13.420E-3
 38.0000	-2.460E+0	13.420E-3
 39.0000	-2.530E+0	13.420E-3
 40.0000	-2.590E+0	13.420E-3
 41.0000	-2.660E+0	13.420E-3
 42.0000	-2.730E+0	13.420E-3
 43.0000	-2.790E+0	13.420E-3
 44.0000	-2.860E+0	13.420E-3
 45.0000	-2.930E+0	13.420E-3
 46.0000	-2.990E+0	13.420E-3
 47.0000	-3.060E+0	13.420E-3
 48.0000	-3.120E+0	13.420E-3
 49.0000	-3.190E+0	13.420E-3
 50.0000	-3.260E+0	13.420E-3
 51.0000	-3.330E+0	16.100E-3
 52.0000	-3.390E+0	13.420E-3
 53.0000	-3.460E+0	13.420E-3
 54.0000	-3.520E+0	13.420E-3
 55.0000	-3.590E+0	13.420E-3
 56.0000	-3.660E+0	13.420E-3
 57.0000	-3.730E+0	13.420E-3
 58.0000	-3.790E+0	13.420E-3
 59.0000	-3.860E+0	13.420E-3
 60.0000	-3.930E+0	13.420E-3
 61.0000	-3.990E+0	13.420E-3
 62.0000	-4.060E+0	13.420E-3
 63.0000	-4.130E+0	13.420E-3
 64.0000	-4.190E+0	13.420E-3
 65.0000	-4.260E+0	13.420E-3
 66.0000	-4.330E+0	13.420E-3
 67.0000	-4.390E+0	13.420E-3
 68.0000	-4.460E+0	13.420E-3
 69.0000	-4.530E+0	13.420E-3
 70.0000	-4.590E+0	13.420E-3
 71.0000	-4.660E+0	13.420E-3
 72.0000	-4.730E+0	13.420E-3
 73.0000	-4.790E+0	13.420E-3
 74.0000	-4.860E+0	-8.060E-3
 75.0000	-4.920E+0	-102.000E-3
 76.0000	-4.990E+0	-206.700E-3
 77.0000	-5.060E+0	-413.400E-3
 78.0000	-5.120E+0	-660.400E-3
 79.0000	-5.190E+0	-966.400E-3
 80.0000	-5.260E+0	-1.315E+0
 81.0000	-5.320E+0	-1.689E+0
 82.0000	-5.390E+0	-2.145E+0
 83.0000	-5.460E+0	-2.693E+0
 84.0000	-5.520E+0	-3.289E+0
 85.0000	-5.590E+0	-3.898E+0
 86.0000	-5.660E+0	-4.523E+0
 87.0000	-5.730E+0	-5.205E+0
 88.0000	-5.790E+0	-5.823E+0
 89.0000	-5.860E+0	-6.454E+0
 90.0000	-5.920E+0	-7.060E+0
 91.0000	-5.990E+0	-7.635E+0
 92.0000	-6.060E+0	-8.180E+0
 93.0000	-6.120E+0	-8.687E+0
 94.0000	-6.190E+0	-9.162E+0
 95.0000	-6.260E+0	-9.648E+0
 96.0000	-6.320E+0	-10.040E+0
 97.0000	-6.390E+0	-10.430E+0
 98.0000	-6.460E+0	-10.790E+0
 99.0000	-6.520E+0	-11.120E+0
100.0000	-6.590E+0	-11.430E+0
101.0000	-6.660E+0	-11.720E+0
102.0000	-6.720E+0	-11.970E+0
103.0000	-6.790E+0	-12.210E+0
104.0000	-6.860E+0	-12.420E+0
105.0000	-6.920E+0	-12.610E+0
106.0000	-6.990E+0	-12.780E+0
107.0000	-7.060E+0	-12.930E+0
108.0000	-7.120E+0	-13.070E+0
109.0000	-7.190E+0	-13.190E+0
110.0000	-7.260E+0	-13.290E+0
111.0000	-7.320E+0	-13.370E+0
112.0000	-7.390E+0	-13.440E+0
113.0000	-7.460E+0	-13.490E+0
114.0000	-7.520E+0	-13.540E+0
115.0000	-7.590E+0	-13.560E+0
116.0000	-7.660E+0	-13.580E+0
117.0000	-7.720E+0	-13.580E+0
118.0000	-7.790E+0	-13.560E+0
119.0000	-7.860E+0	-13.520E+0
120.0000	-7.920E+0	-13.470E+0
121.0000	-7.990E+0	-13.350E+0
122.0000	-8.060E+0	-13.210E+0
123.0000	-8.120E+0	-13.060E+0
124.0000	-8.190E+0	-12.870E+0
125.0000	-8.260E+0	-12.570E+0
126.0000	-8.320E+0	-12.320E+0
127.0000	-8.390E+0	-12.010E+0
128.0000	-8.460E+0	-11.380E+0
129.0000	-8.520E+0	-10.850E+0
130.0000	-8.590E+0	-10.220E+0
131.0000	-8.660E+0	-9.326E+0
132.0000	-8.720E+0	-8.746E+0
133.0000	-8.790E+0	-8.174E+0
134.0000	-8.860E+0	-7.643E+0
135.0000	-8.920E+0	-7.270E+0
136.0000	-8.990E+0	-6.948E+0
137.0000	-9.060E+0	-6.693E+0
138.0000	-9.120E+0	-6.467E+0
139.0000	-9.190E+0	-6.169E+0
140.0000	-9.260E+0	-5.884E+0
141.0000	-9.320E+0	-5.654E+0
142.0000	-9.390E+0	-5.455E+0
143.0000	-9.460E+0	-5.154E+0
144.0000	-9.520E+0	-5.015E+0
145.0000	-9.590E+0	-4.956E+0
146.0000	-9.660E+0	-4.926E+0
147.0000	-9.720E+0	-4.902E+0
148.0000	-9.790E+0	-4.851E+0
149.0000	-9.860E+0	-4.808E+0
150.0000	-9.920E+0	-4.792E+0
151.0000	-9.920E+0	-4.548E+0
152.0000	-9.920E+0	-4.438E+0
153.0000	-9.920E+0	-4.370E+0
154.0000	-9.920E+0	-4.322E+0
155.0000	-9.920E+0	-4.285E+0
156.0000	-9.920E+0	-4.258E+0
157.0000	-9.920E+0	-4.231E+0
158.0000	-9.920E+0	-4.209E+0
159.0000	-9.920E+0	-4.193E+0
160.0000	-9.920E+0	-4.177E+0
161.0000	-9.920E+0	-4.164E+0
162.0000	-9.920E+0	-4.148E+0
163.0000	-9.920E+0	-4.137E+0
164.0000	-9.920E+0	-4.123E+0
165.0000	-9.920E+0	-4.113E+0
166.0000	-9.920E+0	-4.105E+0
167.0000	-9.920E+0	-4.094E+0
168.0000	-9.920E+0	-4.086E+0
169.0000	-9.920E+0	-4.078E+0
170.0000	-9.920E+0	-4.070E+0
171.0000	-9.920E+0	-4.064E+0
172.0000	-9.920E+0	-4.056E+0
173.0000	-9.920E+0	-4.051E+0
174.0000	-9.920E+0	-4.046E+0
175.0000	-9.920E+0	-4.040E+0
176.0000	-9.930E+0	-4.059E+0
177.0000	-10.000E+0	-4.462E+0
178.0000	-10.060E+0	-4.660E+0
179.0000	-10.130E+0	-4.709E+0
180.0000	-10.200E+0	-4.698E+0
181.0000	-10.260E+0	-4.652E+0
182.0000	-10.330E+0	-4.585E+0
183.0000	-10.400E+0	-4.526E+0
184.0000	-10.460E+0	-4.413E+0
185.0000	-10.530E+0	-4.370E+0
186.0000	-10.600E+0	-4.341E+0
187.0000	-10.660E+0	-4.309E+0
188.0000	-10.730E+0	-4.255E+0
189.0000	-10.800E+0	-4.199E+0
190.0000	-10.860E+0	-4.118E+0
191.0000	-10.930E+0	-4.027E+0
192.0000	-11.000E+0	-3.922E+0
193.0000	-11.060E+0	-3.863E+0
194.0000	-11.130E+0	-3.809E+0
195.0000	-11.200E+0	-3.766E+0
196.0000	-11.260E+0	-3.737E+0
197.0000	-11.330E+0	-3.715E+0
198.0000	-11.400E+0	-3.689E+0
199.0000	-11.460E+0	-3.624E+0
200.0000	-11.530E+0	-3.549E+0
201.0000	-11.600E+0	-3.511E+0
202.0000	-11.660E+0	-3.476E+0
203.0000	-11.730E+0	-3.490E+0
204.0000	-11.800E+0	-3.509E+0
205.0000	-11.860E+0	-3.460E+0
206.0000	-11.930E+0	-3.463E+0
207.0000	-12.000E+0	-3.487E+0
208.0000	-12.060E+0	-3.517E+0
209.0000	-12.130E+0	-3.479E+0
210.0000	-12.200E+0	-3.506E+0
211.0000	-12.260E+0	-3.522E+0
212.0000	-12.330E+0	-3.525E+0
213.0000	-12.400E+0	-3.495E+0
214.0000	-12.460E+0	-3.487E+0
215.0000	-12.530E+0	-3.471E+0
216.0000	-12.600E+0	-3.358E+0
217.0000	-12.660E+0	-3.117E+0
218.0000	-12.730E+0	-3.076E+0
219.0000	-12.800E+0	-3.058E+0
220.0000	-12.860E+0	-3.060E+0
221.0000	-12.930E+0	-3.060E+0
222.0000	-13.000E+0	-3.050E+0
223.0000	-13.060E+0	-3.028E+0
224.0000	-13.130E+0	-3.023E+0
225.0000	-13.200E+0	-3.025E+0
226.0000	-13.260E+0	-3.034E+0
227.0000	-13.330E+0	-3.047E+0
228.0000	-13.400E+0	-3.060E+0
229.0000	-13.460E+0	-3.066E+0
230.0000	-13.530E+0	-3.079E+0
231.0000	-13.600E+0	-3.060E+0
232.0000	-13.660E+0	-3.055E+0
233.0000	-13.730E+0	-3.063E+0
234.0000	-13.800E+0	-3.079E+0
235.0000	-13.860E+0	-3.082E+0
236.0000	-13.930E+0	-3.082E+0
237.0000	-14.000E+0	-3.079E+0
238.0000	-14.060E+0	-3.068E+0
239.0000	-14.130E+0	-2.996E+0
240.0000	-14.200E+0	-3.004E+0
241.0000	-14.260E+0	-3.009E+0
242.0000	-14.330E+0	-2.991E+0
243.0000	-14.400E+0	-2.980E+0
244.0000	-14.430E+0	-2.883E+0
245.0000	-14.430E+0	-2.768E+0
